Wavelength (nm),n,k
206.6,0.5039997882,0.8703864105
210.89508319,0.554820958,0.9655788748
215.279458439,0.6118689316,1.0402424751
219.754982075,0.6704392501,1.0963412968
224.323549012,0.7265409622,1.135840896
228.987093564,0.7765282846,1.1610020528
233.747590255,0.8169353672,1.1746365062
238.607054657,0.8443302844,1.1804593425
243.567544248,0.8551693392,1.1839062714
248.631159276,0.8463312836,1.1942188064
253.800043655,0.8194217466,1.2278562606
259.076385867,0.7932903497,1.3061164285
264.462419893,0.8124064983,1.4314516991
269.960426156,0.9178746242,1.5608011454
275.572732488,1.1045240356,1.6260060492
281.301715116,1.3192280026,1.5793108973
287.149799665,1.4907198771,1.4181689849
293.119462189,1.5628189869,1.1823642914
299.213230217,1.5142284621,0.9321802101
305.433683824,1.357892978,0.7227759081
311.783456723,1.1252243269,0.5898898005
318.265237381,0.8501473601,0.5544463527
324.881770154,0.5787437344,0.6366111548
331.635856454,0.3894304673,0.809939685
338.530355932,0.2901538372,0.9883664921
345.568187689,0.2362463009,1.1429972155
352.752331512,0.2034559326,1.2775465077
360.085829136,0.1819110292,1.3979232011
367.571785533,0.1671453209,1.5082153937
375.213370223,0.156810411,1.6111081905
383.013818621,0.1495173105,1.7084352934
390.976433402,0.1443782316,1.8015106519
399.104585903,0.1407970528,1.8913146404
407.401717548,0.1383604084,1.9786022295
415.871341306,0.1367753528,2.0639693488
424.51704318,0.1358311214,2.1478957703
433.342483722,0.1353744586,2.2307740881
442.351399584,0.1352930954,2.3129300536
451.547605104,0.1355043735,2.3946372971
460.934993913,0.1359472502,2.4761282634
470.517540592,0.1365765927,2.5576025057
480.299302349,0.1373590603,2.6392330836
490.28442074,0.1382701059,2.721171565
500.47712342,0.1392917786,2.8035519805
510.881725935,0.1404111045,2.886493978
521.502633549,0.1416188869,2.9701053588
532.344343107,0.1429088157,3.0544841303
543.411444943,0.144276802,3.1397201775
554.708624818,0.1457204792,3.2258966316
566.24066591,0.1472388294,3.3130909974
578.012450835,0.1488319,3.4013760862
590.028963715,0.1505005903,3.4908207924
602.295292289,0.1522464891,3.5814907428
614.816630068,0.154071751,3.6734488432
627.598278532,0.1559790028,3.7667557403
640.645649374,0.1579712714,3.8614702148
653.964266795,0.1600519295,3.9576495168
667.559769839,0.1622246545,4.0553496551
681.437914784,0.1644933977,4.154625646
695.604577575,0.1668623613,4.2555317312
710.065756315,0.1693359821,4.3581215664
724.827573806,0.1719189205,4.4624483888
739.896280135,0.1746160532,4.5685651635
755.278255329,0.1774324693,4.6765247151
770.980012047,0.1803734696,4.7863798438
787.008198346,0.1834445675,4.898183431
803.369600489,0.1866514926,5.0119885336
820.071145824,0.1900001952,5.1278484701
837.119905712,0.1934968528,5.2458168989
854.523098523,0.1971478774,5.3659478905
872.288092693,0.2009599244,5.4882959937
890.422409845,0.2049399017,5.6129162967
908.933727968,0.2090949806,5.7398644847
927.829884674,0.2134326065,5.869196893
947.118880514,0.2179605117,6.0009705577
966.808882365,0.2226867275,6.1352432624
986.908226887,0.2276195977,6.2720735838
1007.42542406,0.2327677934,6.4115209342
1028.36916076,0.2381403267,6.5536456027
1049.7483045,0.243746567,6.6985087939
1071.57190709,0.2495962569,6.8461726666
1093.84920857,0.2556995285,6.9967003698
1116.58964103,0.2620669216,7.1501560781
1139.80283269,0.2687094011,7.3066050268
1163.49861191,0.2756383762,7.4661135451
1187.68701137,0.2828657198,7.6287490893
1212.37827235,0.2904037887,7.794580275
1237.582849,0.2982654447,7.9636769089
1263.31141285,0.3064640765,8.1361100202
1289.57485725,0.3150136222,8.3119518912
1316.38430203,0.3239285926,8.4912760882
1343.75109819,0.3332240961,8.674157491
1371.68683271,0.3429158633,8.8606723236
1400.20333347,0.3530202736,9.0508981831
1429.31267422,0.3635543824,9.2449140695
1459.02717974,0.3745359494,9.4428004149
1489.35943101,0.3859834674,9.6446391121
1520.32227059,0.3979161931,9.850513544
1551.92880799,0.4103541789,10.0605086115
1584.19242529,0.4233183047,10.2747107629
1617.12678277,0.4368303129,10.4932080212
1650.74582469,0.450912843,10.716090013
1685.0637852,0.4655894682,10.9434479958
1720.09519439,0.4808847334,11.1753748861
1755.85488439,0.496824195,11.4119652867
1792.3579957,0.5134344609,11.6533155137
1829.61998359,0.5307432335,11.8995236238
1867.65662461,0.5487793532,12.1506894408
1906.48402331,0.5675728446,12.4069145815
1946.11861905,0.5871549628,12.6683024819
1986.57719294,0.6075582435,12.9349584225
2027.87687497,0.6288165527,13.2069895534
2070.03515123,0.6509651402,13.4845049182
2113.06987137,0.6740406936,13.7676154783
2156.99925609,0.6980813953,14.0564341359
2201.8419049,0.7231269806,14.3510757562
2247.61680399,0.7492187985,14.6516571889
2294.34333425,0.7763998747,14.9582972893
2342.04127949,0.8047149763,15.2711169376
2390.73083481,0.8342106791,15.5902390578
2440.43261516,0.8649354373,15.9157886351
2491.16766405,0.8969396553,16.2478927319
2542.95746248,0.9302757622,16.586680503
2595.82393804,0.9649982886,16.9322832086
2649.78947414,1.0011639458,17.2848342262
2704.87691958,1.0388317082,17.6444690604
2761.10959812,1.0780628976,18.011325351
2818.51131845,1.1189212705,18.3855428791
2877.1063842,1.1614731084,18.7672635706
2936.91960427,1.2057873104,19.1566314978
2997.97630331,1.2519354889,19.5537928782
3060.30233246,1.299992068,19.9588960707
3123.9240803,1.3500343847,20.3720915685
3188.868484,1.4021427934,20.7935319897
3255.16304072,1.4564007725,21.2233720631
3322.83581931,1.5128950348,21.6617686123
3391.91547211,1.5717156402,22.1088805344
3462.43124716,1.6329561112,22.5648687752
3534.41300053,1.6967135517,23.0298963006
3607.89120897,1.7630887687,23.5041280626
3682.89698284,1.8321863957,23.9877309606
3759.46207926,1.9041150203,24.4808737984
3837.61891556,1.9789873135,24.9837272343
3917.40058299,2.0569201616,25.4964637269
3998.84086078,2.138034801,26.0192574734
4081.97423038,2.2224569548,26.552284343
4166.8358901,2.3103169719,27.0957218022
4253.46176999,2.4017499683,27.6497488336
4341.88854708,2.4968959691,28.2145458474
4432.15366088,2.5959000539,28.7902945846
4524.29532923,2.6989125019,29.3771780121
4618.35256454,2.8060889388,29.9753802094
4714.36519021,2.9175904847,30.5850862462
4812.37385758,3.0335839019,31.2064820503
4912.42006309,3.1542417432,31.8397542665
5014.54616587,3.2797424994,32.485090104
5118.79540566,3.4102707466,33.1426771747
5225.21192114,3.5460172918,33.8127033195
5333.8407686,3.687179317,34.4953564235
5444.72794102,3.8339605204,35.1908242194
5557.92038754,3.9865712557,35.8992940792
5673.46603336,4.1452286663,36.6209527927
5791.41379999,4.3101568164,37.3559863338
5911.81362602,4.4815868165,38.1045796133
6034.7164882,4.6597569423,38.8669162182
6160.17442306,4.8449127483,39.6431781381
6288.24054896,5.0373071719,40.4335454766
6418.96908852,5.23720063,41.2381961492
6552.41539166,5.4448611054,42.0573055671
6688.63595894,5.6605642219,42.8910463065
6827.68846557,5.884593308,43.7395877636
6969.63178576,6.117239447,44.603095795
7114.52601772,6.3588015123,45.481732345
7262.43250901,6.6095861876,46.3756550575
7413.41388261,6.8699079689,47.2850168756
7567.53406337,7.1400891485,48.209965627
7724.85830511,7.4204597789,49.1506435972
7885.45321822,7.7113576147,50.1071870902
8049.38679789,8.0131280315,51.0797259781
8216.72845289,8.3261239205,52.0683832401
8387.54903495,8.6507055566,53.0732744916
8561.92086874,8.9872404388,54.0945075055
8739.91778256,9.3361031008,55.1321817261
8921.61513952,9.6976748921,56.1863877775
9107.08986948,10.0723437251,57.2572069682
9296.42050165,10.4605037896,58.3447107935
9489.68719778,10.8625552319,59.4489604375
9686.97178616,11.2789037969,60.5700062781
9888.35779621,11.7099604336,61.7078873953
10093.9304939,12.1561408611,62.8626310875
10303.7769178,12.6178650954,64.0342523968
10517.985916,13.0955569356,65.222753648
10736.6481837,13.5896434094,66.428124002
10959.8563014,14.1005541777,67.6503390297
11187.7047746,14.6287208969,68.8893603073
11420.2900733,15.1745765412,70.1451350383
11657.7106731,15.738554683,71.4175957048
11900.0670968,16.3210887347,72.7066597524
12147.4619572,16.92261115,74.012229313
12400,17.5435525892,75.3341909676
