Wavelength (nm),n,k
250,2.620526075,0.6530144811
250.3572388,2.620892048,0.6515368223
250.7144928,2.621217728,0.6500669122
251.0717316,2.621538639,0.6486014724
251.4289856,2.621910334,0.6471220255
251.7862244,2.622300386,0.6456406116
252.1434631,2.62265873,0.644166708
252.5007172,2.622993708,0.6426994801
252.8579559,2.623347521,0.6412288547
253.21521,2.623728991,0.6397510171
253.5724487,2.624101162,0.6382781267
253.9296875,2.624436855,0.6368121505
254.2869415,2.624773026,0.6353499889
254.6441803,2.625188589,0.6338651776
255.0014343,2.625604153,0.6323842406
255.3586731,2.625963211,0.6309151053
255.7159119,2.626307249,0.6294521093
256.0731506,2.62664628,0.6279898286
256.4304199,2.626981258,0.6265287399
256.7876587,2.627307177,0.625071764
257.1448975,2.627613068,0.6236178279
257.5021362,2.627923012,0.6221666932
257.859375,2.628308058,0.6206938624
258.2166443,2.628693104,0.6192250252
258.5738831,2.629036903,0.6177636385
258.9311218,2.629369259,0.6163071394
259.2883606,2.629723549,0.6148452759
259.6455994,2.630101442,0.6133777499
260.0028687,2.630470991,0.6119144559
260.3601074,2.630804062,0.6104568839
260.7173462,2.631137133,0.6090032458
261.074585,2.631527662,0.6075327396
261.4318237,2.631926298,0.6060632467
261.789093,2.632294655,0.6045997143
262.1463318,2.632636547,0.6031426191
262.5035706,2.632985115,0.6016861796
262.8608093,2.633360863,0.600220263
263.2180481,2.63373661,0.5987583399
263.5753174,2.634076357,0.5973006487
263.9325562,2.634408236,0.5958474278
264.2897949,2.634770155,0.5943871737
264.6470337,2.635168076,0.5929177403
265.0042725,2.635562897,0.5914524198
265.3615417,2.635909081,0.5899928212
265.7187805,2.636255264,0.5885374546
266.0760193,2.636630058,0.5870733857
266.4332581,2.63702035,0.5856064558
266.7904968,2.637400389,0.5841435194
267.1477661,2.637746572,0.5826842189
267.5050049,2.638092756,0.5812290907
267.8622437,2.638492346,0.5797582269
268.2194824,2.638906717,0.5782862306
268.5767212,2.639301538,0.576818943
268.9339905,2.639657497,0.5753570199
269.2912292,2.640013456,0.5738995075
269.648468,2.640385389,0.5724331737
270.0057068,2.640760183,0.570968926
270.3629761,2.641120911,0.5695074797
270.7202148,2.641457796,0.5680485964
271.0774536,2.64179492,0.566593647
271.4346924,2.642190218,0.5651205182
271.7919312,2.642594814,0.5636481047
272.1492004,2.642982483,0.562179327
272.5064392,2.643337488,0.5607141256
272.863678,2.643692493,0.5592532158
273.2209167,2.644082069,0.5577796698
273.5781555,2.64447999,0.5563060641
273.9354248,2.644867182,0.5548356175
274.2926636,2.645222425,0.5533672571
274.6499023,2.645577669,0.5519028902
275.0071411,2.64597559,0.5504256487
275.3643799,2.646393299,0.5489444137
275.7216492,2.64680624,0.5474668145
276.0788879,2.647170782,0.5459923744
276.4361267,2.647535563,0.544522047
276.7933655,2.647916317,0.5430461764
277.1506042,2.648314476,0.5415642262
277.5078735,2.648712873,0.5400862098
277.8651123,2.649074554,0.5386087894
278.2223511,2.649430513,0.5371348262
278.5795898,2.649800301,0.5356590748
278.9368286,2.650219679,0.5341671109
279.2940979,2.650639057,0.5326790214
279.6513367,2.651031733,0.531193018
280.0085754,2.651402473,0.5297095776
280.3658142,2.651773691,0.5282300115
280.723053,2.652182817,0.5267347097
281.0803223,2.652597427,0.5252406001
281.437561,2.653004408,0.5237497687
281.7947998,2.653376818,0.5222581029
282.1520386,2.653748751,0.5207705498
282.5092773,2.65415287,0.519274056
282.8665466,2.65459466,0.5177662969
283.2237854,2.655035973,0.5162629485
283.5810242,2.655435801,0.5147608519
283.9382629,2.655819893,0.5132618546
284.2955017,2.656203985,0.5117669702
284.652771,2.656598091,0.5102590322
285.0100098,2.656991959,0.5087550879
285.3672485,2.65737915,0.50725317
285.7244873,2.657738209,0.5057482719
286.0817261,2.658097267,0.504247427
286.4389954,2.658484697,0.5027384758
286.7962341,2.658912897,0.5012165308
287.1534729,2.659341335,0.4996985793
287.5107117,2.659741163,0.4981803298
287.8679504,2.660122395,0.4966630042
288.2252197,2.660503387,0.4951494634
288.5824585,2.660917997,0.4936209321
288.9396973,2.661342859,0.4920906126
289.296936,2.661767721,0.4905642867
289.6541748,2.662154436,0.4890335798
290.0114441,2.662537813,0.4875054061
290.3686829,2.662923336,0.4859804809
290.7259216,2.663368225,0.4844317138
291.0831604,2.663812876,0.4828869998
291.4403992,2.664250374,0.4813449979
291.7976685,2.664644718,0.4797989428
292.1549072,2.665039301,0.4782573283
292.512146,2.66544199,0.4767135382
292.8693848,2.665871382,0.4751547277
293.2266235,2.666300535,0.4735999703
293.5838928,2.666717529,0.4720453918
293.9411316,2.667104721,0.4704867303
294.2983704,2.66749239,0.468932122
294.6556091,2.667901516,0.4673708677
295.0128479,2.668351412,0.4657933414
295.3701172,2.668801069,0.4642196596
295.727356,2.669233799,0.4626456797
296.0845947,2.669637203,0.4610678554
296.4418335,2.670040369,0.4594939649
296.7990723,2.670459986,0.4579134583
297.1563416,2.670907497,0.4563186467
297.5135803,2.671354771,0.4547280967
297.8708191,2.6717875,0.4531366229
298.2280579,2.672192812,0.4515393376
298.5852966,2.672598362,0.4499458671
298.9425659,2.673024178,0.4483463764
299.2998047,2.673494577,0.4467276335
299.6570435,2.673965216,0.4451130629
300.0142822,2.674423218,0.4434989095
300.371521,2.674842596,0.4418773353
300.7287903,2.675262213,0.4402597547
301.0860291,2.675685406,0.4386417568
301.4432678,2.676128387,0.4370041192
301.8005066,2.676571369,0.4353705943
302.1577454,2.677012682,0.4337407649
302.5150146,2.67741704,0.4320960641
302.8722534,2.677821636,0.4304557741
303.2294922,2.678226471,0.4288201034
303.586731,2.678691149,0.4271539152
303.9439697,2.679161072,0.4254894257
304.301239,2.679630995,0.4238288403
304.6584778,2.68006587,0.4221572578
305.0157166,2.680490017,0.4204849601
305.3729553,2.680914402,0.4188168645
305.7301941,2.681364775,0.4171322882
306.0874634,2.681834221,0.4154366255
306.4447021,2.682303429,0.4137455821
306.8019409,2.682756901,0.412050128
307.1591797,2.683184385,0.410344094
307.5164185,2.683612108,0.4086423218
307.8736877,2.684049368,0.406938374
308.2309265,2.684538841,0.4052045643
308.5881653,2.685028791,0.4034751952
308.9454041,2.685518503,0.4017501473
309.3026428,2.685964108,0.4000065625
309.6599121,2.686404705,0.3982647955
310.0171509,2.686845779,0.3965274096
310.3743896,2.687310696,0.394769609
310.7316284,2.687790394,0.3930011392
311.0888977,2.688270092,0.3912366927
311.4461365,2.688735962,0.389467746
311.8033752,2.689172745,0.3876826763
312.160614,2.689609528,0.3859024942
312.5178528,2.690046787,0.384126544
312.8751221,2.690547943,0.3823077679
313.2323608,2.691049337,0.3804939687
313.5895996,2.69155097,0.3786846995
313.9468384,2.692022324,0.3768587708
314.3040771,2.692477465,0.3750252426
314.6613464,2.692932606,0.3731962442
315.0185852,2.693401337,0.3713589311
315.375824,2.693906307,0.3694904745
315.7330627,2.694411516,0.3676267862
316.0903015,2.694916964,0.365768075
316.4475708,2.695384502,0.3638801277
316.8048096,2.695846319,0.3619922996
317.1620483,2.696308613,0.360108912
317.5192871,2.696805,0.3582055867
317.8765259,2.69734621,0.3562743366
318.2337952,2.697887421,0.3543477654
318.5910339,2.698428869,0.3524266481
318.9482727,2.698913336,0.3504687846
319.3055115,2.699396849,0.3485148251
319.6627502,2.6998806,0.3465659618
320.0200195,2.700363398,0.3445954323
320.3772583,2.700844765,0.3426035345
320.7344971,2.701326847,0.3406166732
321.0917358,2.701809168,0.3386346698
321.4489746,2.702254534,0.3366066813
321.8062439,2.702699661,0.334582299
322.1634827,2.703145504,0.3325631618
322.5207214,2.703627586,0.3305177391
322.8779602,2.704154491,0.3284382224
323.235199,2.704682112,0.3263639212
323.5924683,2.705210209,0.3242944181
323.949707,2.705696106,0.3221782744
324.3069458,2.706176519,0.3200600743
324.6641846,2.706657648,0.3179469407
325.0214233,2.707154751,0.3158174157
325.3786926,2.707691669,0.3136376441
325.7359314,2.708229303,0.3114635944
326.0931702,2.708767414,0.3092948496
326.4504089,2.709275723,0.3070845306
326.8076477,2.709769249,0.3048552573
327.164917,2.710263491,0.3026309609
327.5221558,2.710758924,0.3004119396
327.8793945,2.711325645,0.2981070578
328.2366333,2.711892843,0.2958079875
328.5938721,2.712461233,0.2935144901
328.9511414,2.713013649,0.2911980748
329.3083801,2.713533878,0.2888283432
329.6656189,2.714055061,0.286464572
330.0228577,2.714577198,0.2841064036
330.3800964,2.715132713,0.2816867828
330.7373657,2.715709686,0.2792303562
331.0946045,2.716287613,0.2767803073
331.4518433,2.716866732,0.2743364573
331.809082,2.717409372,0.2717987895
332.1663208,2.71794796,0.2692528069
332.5235901,2.71848774,0.2667125463
332.8808289,2.719037056,0.2641644478
333.2380676,2.719660521,0.2614910007
333.5953064,2.720285177,0.2588244081
333.9525452,2.720911264,0.2561644614
334.3098145,2.721526861,0.2534630597
334.6670532,2.722116232,0.2506554425
335.024292,2.722707033,0.2478548139
335.3815308,2.723299742,0.2450608611
335.7387695,2.723926544,0.2421777993
336.0960388,2.724593163,0.2391889244
336.4532776,2.72526145,0.236207962
336.8105164,2.725931644,0.2332346737
337.1677551,2.726578951,0.2301176488
337.5249939,2.727211714,0.226906538
337.8822632,2.727846861,0.2237026393
338.239502,2.728484631,0.2205074131
338.5967407,2.729169369,0.2170819491
338.9539795,2.72987628,0.213562876
339.3112183,2.73058629,0.2100528479
339.6684875,2.7312994,0.2065509856
340.0257263,2.73193121,0.202722013
340.3829651,2.7325418,0.1988014579
340.7402039,2.733156919,0.1948905587
341.0974426,2.733776331,0.1909891069
341.4547119,2.734287977,0.1866274923
341.8119507,2.734778881,0.1821637899
342.1691895,2.735276222,0.177711159
342.5264282,2.735779524,0.1732687652
342.883667,2.735949278,0.1682459116
343.2409363,2.736048698,0.1630951166
343.598175,2.736157894,0.1579556614
343.9554138,2.736276388,0.1528263539
344.3126526,2.73579812,0.1470601261
344.6698914,2.73516345,0.1411205977
345.0271606,2.73454237,0.1351890862
345.3843994,2.733935595,0.1292684525
345.7416382,2.732427597,0.1228016466
346.098877,2.73057723,0.1161212251
346.4561157,2.728745699,0.1094451398
346.813385,2.726932287,0.1027724966
347.1706238,2.723249912,0.0957307071
347.5278625,2.718429327,0.0884504616
347.8851013,2.713629246,0.081159465
348.2423401,2.708848953,0.07385692
348.5996094,2.702442884,0.0686263591
348.9568481,2.694308043,0.0655772835
349.3140869,2.686168194,0.062516585
349.6713257,2.678024292,0.0594443418
350.0285645,2.671092033,0.0576941147
350.3858337,2.666756392,0.0587872863
350.7430725,2.662424326,0.0598817617
351.1003113,2.658094168,0.0609777942
351.45755,2.654047251,0.0618033744
351.8148193,2.65215373,0.0605468936
352.1720581,2.650263309,0.0592911691
352.5292969,2.648376465,0.058036387
352.8865356,2.646492481,0.0567822419
353.2437744,2.643736124,0.0551517084
353.6010437,2.640858412,0.0534669757
353.9582825,2.637985229,0.0517823361
354.3155212,2.635115623,0.0500975326
354.67276,2.632288218,0.04850417
355.0299988,2.629490137,0.0469723605
355.3872681,2.626695156,0.0454400145
355.7445068,2.623904228,0.0439078696
356.1017456,2.621050835,0.0424630866
356.4589844,2.618035078,0.0412380584
356.8162231,2.615022659,0.0400127173
357.1734924,2.612012625,0.0387868509
357.5307312,2.609006405,0.0375608988
357.88797,2.606230259,0.036589656
358.2452087,2.603473186,0.0356364809
358.6024475,2.600719213,0.0346832685
358.9597168,2.597967625,0.0337298401
359.3169556,2.595244884,0.0328880362
359.6741943,2.592546701,0.0321399942
360.0314331,2.589851379,0.0313919187
360.3886719,2.58715868,0.0306438133
360.7459412,2.584496737,0.0299114026
361.1031799,2.582057953,0.0293016508
361.4604187,2.579621792,0.0286919549
361.8176575,2.577188253,0.0280823149
362.1748962,2.574757814,0.0274727717
362.5321655,2.572394848,0.0269234553
362.8894043,2.570070982,0.0264071282
363.2466431,2.5677495,0.0258908998
363.6038818,2.56543088,0.0253748056
363.9611206,2.563140631,0.0248673447
364.3183899,2.561011791,0.0244125743
364.6756287,2.558885813,0.0239580739
365.0328674,2.556762457,0.0235036947
365.3901062,2.554641724,0.0230494775
365.747345,2.552550316,0.0226210374
366.1046143,2.550478935,0.0222103056
366.461853,2.548410416,0.0217997506
366.8190918,2.54634428,0.0213893578
367.1763306,2.544281483,0.0209792741
367.5335693,2.542351961,0.0206000377
367.8908386,2.540425062,0.0202209633
368.2480774,2.538500786,0.0198420957
368.6053162,2.536578655,0.0194634013
368.9625549,2.534683228,0.0190941226
369.3197937,2.532829762,0.0187404249
369.677063,2.53097868,0.0183868501
370.0343018,2.52913022,0.018033497
370.3915405,2.527283907,0.0176803544
370.7487793,2.525506735,0.0173418224
371.1060181,2.523759842,0.0170096122
371.4632874,2.522014618,0.0166775007
371.8205261,2.520272255,0.0163456295
372.1777649,2.518532038,0.0160139855
372.5350037,2.516829252,0.0157011859
372.8922424,2.515128851,0.0153887607
373.2495117,2.513430357,0.0150764911
373.6067505,2.511734247,0.0147644375
373.9639893,2.510056973,0.0144566689
374.321228,2.508435488,0.0141625814
374.6784668,2.506816149,0.0138686923
375.0357361,2.505198479,0.0135749299
375.3929749,2.50358367,0.0132814404
375.7502136,2.501987457,0.0129955504
376.1074524,2.500416517,0.0127197364
376.4646912,2.498847008,0.012444078
376.8219604,2.497279644,0.0121685714
377.1791992,2.495714426,0.0118932808
377.536438,2.49418211,0.0116282096
377.8936768,2.492673874,0.0113704354
378.2509155,2.491167307,0.0111128064
378.6081848,2.489662647,0.010855333
378.9654236,2.488160372,0.0105980774
379.3226624,2.48667264,0.0103531042
379.6799011,2.485192537,0.0101135951
380.0371399,2.483714342,0.0098742284
380.3944092,2.482238054,0.0096350154
380.7516479,2.480763912,0.0093960147
381.1088867,2.479323626,0.009170468
381.4661255,2.477895498,0.008949291
381.8233643,2.47646904,0.0087282751
382.1806335,2.475044489,0.0085073784
382.5378723,2.473622084,0.0082866894
382.8951111,2.472227097,0.0080800252
383.2523499,2.470840931,0.0078774681
383.6095886,2.469456911,0.0076750526
383.9668579,2.46807456,0.0074727577
384.3240967,2.466694117,0.0072706458
384.6813354,2.465342283,0.0070823128
385.0385742,2.464001179,0.0068986518
385.395813,2.462661743,0.0067151138
385.7530823,2.461324453,0.0065317061
386.110321,2.459988594,0.0063484758
386.4675598,2.458668947,0.0061778789
386.8247986,2.457357407,0.0060134339
387.1820374,2.456048012,0.005849143
387.5393066,2.454740047,0.0056849383
387.8965454,2.453434229,0.0055208975
388.2537842,2.452147007,0.0053673843
388.6110229,2.450875521,0.0052224696
388.9682617,2.449605942,0.0050776866
389.325531,2.448337793,0.004932974
389.6827698,2.447071552,0.0047884244
390.0400085,2.445819855,0.0046512703
390.3972473,2.444591045,0.0045262203
390.7544861,2.443363428,0.004401261
391.1117554,2.442137718,0.0042763781
391.4689941,2.440913439,0.0041516218
391.8262329,2.439695597,0.0040300572
392.1834717,2.438502789,0.0039251894
392.540741,2.437311649,0.0038203951
392.8979797,2.436122179,0.0037157079
393.2552185,2.434934378,0.0036111078
393.6124573,2.433748007,0.0035065897
393.969696,2.43257308,0.003419948
394.3269653,2.431400776,0.0033356987
394.6842041,2.430230379,0.0032515314
395.0414429,2.429061174,0.0031674374
395.3986816,2.427893877,0.003083417
395.7559204,2.426743746,0.0030109668
396.1131897,2.425607681,0.002947571
396.4704285,2.424473524,0.0028842457
396.8276672,2.423340559,0.0028209726
397.184906,2.422209501,0.0027577584
397.5421448,2.421087265,0.0026984923
397.8994141,2.419998407,0.0026562957
398.2566528,2.418911457,0.0026141414
398.6138916,2.417825699,0.002572035
398.9711304,2.41674161,0.0025299594
399.3283691,2.415658951,0.0024879219
399.6856384,2.414605379,0.0024618127
400.0428772,2.413562059,0.0024407899
400.400116,2.41252017,0.0024197865
400.7573547,2.41147995,0.0023988034
401.1145935,2.410440922,0.0023778405
401.4718628,2.409414768,0.0023590599
401.8291016,2.408419371,0.0023459254
402.1863403,2.407425642,0.0023328045
402.5435791,2.406433105,0.0023196968
402.9008179,2.405441999,0.0023066013
403.2580872,2.404452324,0.0022935171
403.6153259,2.40348649,0.002280782
403.9725647,2.402530193,0.0022681765
404.3298035,2.401575327,0.0022555836
404.6870422,2.400621653,0.002243004
405.0443115,2.39966917,0.002230433
405.4015503,2.398724079,0.0022179433
405.7587891,2.39781189,0.0022058268
406.1160278,2.396901131,0.0021937229
406.4732666,2.395991564,0.002181629
406.8305359,2.395083189,0.0021695471
407.1877747,2.394176245,0.0021574777
407.5450134,2.393280745,0.0021456368
407.9022522,2.392397165,0.0021340169
408.259491,2.39151454,0.0021224064
408.6167603,2.390633106,0.0021108072
408.973999,2.389752865,0.0020992216
409.3312378,2.388874292,0.0020876471
409.6884766,2.388011932,0.0020764121
410.0457153,2.387154818,0.0020652695
410.4029846,2.386298656,0.0020541337
410.7602234,2.385444164,0.0020430123
411.1174622,2.384590626,0.0020319026
411.4747009,2.383738995,0.0020208233
411.8319397,2.382903814,0.0020101268
412.189209,2.382069826,0.001999439
412.5464478,2.381236792,0.0019887646
412.9036865,2.380405426,0.0019781014
413.2609253,2.379574776,0.0019674501
413.6181641,2.37875247,0.0019568929
413.9754333,2.377954721,0.0019466234
414.3326721,2.377157927,0.0019363657
414.6899109,2.376362324,0.0019261208
415.0471497,2.375568151,0.0019158858
415.4043884,2.374774694,0.0019056612
415.7616577,2.373987436,0.0018955743
416.1188965,2.373210192,0.0018857315
416.4761353,2.372433901,0.0018758987
416.833374,2.371658564,0.0018660763
417.1906128,2.370884418,0.0018562649
417.5478821,2.370111465,0.0018464613
417.9051208,2.369347811,0.0018368132
418.2623596,2.368596792,0.0018273718
418.6195984,2.367846489,0.0018179403
418.9768372,2.367097616,0.0018085199
419.3341064,2.366349697,0.0017991068
419.6913452,2.365602732,0.0017897062
420.048584,2.364861727,0.0017804565
420.4058228,2.364127874,0.0017714074
420.7630615,2.363394976,0.0017623684
421.1203308,2.362663031,0.0017533359
421.4775696,2.361932278,0.0017443163
421.8348083,2.361202717,0.0017353067
422.1920471,2.360485554,0.0017264143
422.5492859,2.35978961,0.0017177258
422.9065552,2.35909462,0.0017090443
423.2637939,2.358400583,0.0017003744
423.6210327,2.357707739,0.0016917142
423.9782715,2.357015848,0.0016830642
424.3355103,2.356326818,0.0016744959
424.6927795,2.355644941,0.0016661674
425.0500183,2.354964018,0.0016578488
425.4072571,2.354284048,0.0016495403
425.7644958,2.353605032,0.00164124
426.1217346,2.352927208,0.0016329503
426.4790039,2.352249861,0.0016246843
426.8362427,2.351569653,0.0016167132
427.1934814,2.350890636,0.001608749
427.5507202,2.350212097,0.0016007933
427.907959,2.349534988,0.0015928482
428.2652283,2.348858595,0.0015849093
428.622467,2.348183393,0.0015769812
428.9797058,2.347514391,0.0015692884
429.3369446,2.346848011,0.0015616568
429.6941833,2.346182108,0.0015540319
430.0514526,2.345517397,0.0015464155
430.4086914,2.34485364,0.0015388109
430.7659302,2.344190598,0.0015312108
431.1231689,2.343543053,0.0015237452
431.4804382,2.342910767,0.0015164164
431.837677,2.342279673,0.0015090969
432.1949158,2.341649294,0.0015017852
432.5521545,2.341019869,0.001494481
432.9093933,2.340391397,0.0014871857
433.2666626,2.339764357,0.0014799252
433.6239014,2.339143276,0.0014729025
433.9811401,2.338523149,0.0014658879
434.3383789,2.337903738,0.0014588807
434.6956177,2.33728528,0.0014518816
435.052887,2.336667776,0.0014448887
435.4101257,2.336050987,0.0014379056
435.7673645,2.335445404,0.0014310878
436.1246033,2.334845781,0.0014243589
436.481842,2.334247112,0.001417638
436.8391113,2.333649397,0.0014109233
437.1963501,2.333052397,0.0014042181
437.5535889,2.33245635,0.00139752
437.9108276,2.331861734,0.0013908618
438.2680664,2.33127141,0.001384414
438.6253357,2.330682039,0.0013779723
438.9825745,2.330093384,0.0013715392
439.3398132,2.329505682,0.0013651135
439.697052,2.328918934,0.001358695
440.0542908,2.328332901,0.0013522831
440.4115601,2.327759981,0.0013459974
440.7687988,2.32719779,0.0013398139
441.1260376,2.326636791,0.0013336387
441.4832764,2.326076269,0.0013274699
441.8405151,2.325516701,0.0013213088
442.1977844,2.324957848,0.0013151532
442.5550232,2.324399948,0.0013090069
442.912262,2.32384491,0.0013030599
443.2695007,2.323290825,0.0012971415
443.6267395,2.322737694,0.0012912316
443.9840088,2.322185278,0.0012853268
444.3412476,2.321633577,0.0012794287
